Time[ps]      Etot[eV]     Epot[eV]     Ekin[eV]    T[K]      ---------------------- stress [GPa] -----------------------
0.0000        -34120.45    -34120.45         0.00     0.0      0.996      1.171      0.195     -0.144     -0.001      0.020
0.2000        -34114.11    -34133.96        19.86   113.5      0.979      1.183      0.110     -0.194      0.004      0.016
0.4000        -34107.83    -34133.06        25.23   144.1      1.004      1.230      0.179     -0.226      0.005      0.011
0.6000        -34100.78    -34131.48        30.69   175.4      0.986      1.210      0.154     -0.235      0.008      0.011
0.8000        -34093.55    -34128.31        34.76   198.6      0.982      1.186      0.135     -0.224      0.011      0.012
1.0000        -34086.19    -34124.35        38.16   218.0      1.012      1.214      0.149     -0.211      0.009      0.018
1.2000        -34078.57    -34120.95        42.38   242.1      1.012      1.222      0.148     -0.214      0.015      0.007
1.4000        -34072.70    -34118.45        45.75   261.4      1.003      1.213      0.156     -0.221      0.003      0.009
1.6000        -34067.43    -34117.12        49.69   283.9      0.978      1.189      0.165     -0.225      0.007      0.015
1.8000        -34061.39    -34113.88        52.50   299.9      0.994      1.201      0.163     -0.218      0.002      0.019
2.0000        -34055.81    -34111.79        55.99   319.9      1.005      1.218      0.179     -0.224     -0.005      0.014
2.2000        -34050.57    -34110.65        60.08   343.3      0.994      1.197      0.170     -0.211      0.011      0.010
2.4000        -34044.75    -34106.59        61.84   353.3      1.001      1.211      0.193     -0.213      0.010      0.008
2.6000        -34040.67    -34106.70        66.03   377.3      0.980      1.212      0.189     -0.216      0.002      0.019
2.8000        -34036.06    -34102.99        66.92   382.4      0.992      1.225      0.183     -0.223      0.002      0.022
3.0000        -34029.28    -34103.06        73.78   421.6      0.997      1.216      0.184     -0.220      0.004      0.015
3.2000        -34024.52    -34095.12        70.60   403.4      1.000      1.220      0.200     -0.209      0.004      0.014
3.4000        -34018.48    -34096.83        78.35   447.7      0.991      1.196      0.173     -0.202     -0.000      0.025
3.6000        -34013.53    -34092.02        78.49   448.4      1.007      1.222      0.193     -0.214     -0.004      0.015
3.8000        -34009.98    -34093.35        83.37   476.4      0.985      1.220      0.189     -0.218      0.012      0.024
4.0000        -34006.40    -34088.81        82.41   470.9      0.981      1.206      0.182     -0.217     -0.002      0.009
4.2000        -34003.25    -34088.54        85.29   487.3      0.975      1.202      0.202     -0.226     -0.005      0.006
4.4000        -33999.04    -34088.27        89.23   509.8      1.014      1.224      0.218     -0.220     -0.003      0.016
4.6000        -33996.36    -34085.42        89.05   508.8      0.994      1.227      0.194     -0.212      0.013      0.014
4.8000        -33994.26    -34086.72        92.46   528.3      0.981      1.206      0.204     -0.212      0.007      0.027
5.0000        -33991.20    -34083.33        92.13   526.4      0.969      1.198      0.206     -0.211      0.003      0.026
5.2000        -33987.65    -34080.25        92.59   529.0      0.979      1.217      0.222     -0.214      0.001      0.025
5.4000        -33986.35    -34084.28        97.93   559.5      0.986      1.200      0.208     -0.230      0.008      0.001
5.6000        -33982.75    -34079.50        96.75   552.8      1.003      1.230      0.233     -0.229      0.010      0.009
5.8000        -33979.46    -34078.36        98.91   565.1      0.988      1.219      0.210     -0.221      0.011      0.011
6.0000        -33976.68    -34076.83       100.15   572.2      0.968      1.219      0.220     -0.230      0.005      0.010
6.2000        -33973.91    -34075.71       101.80   581.7      0.969      1.190      0.190     -0.226      0.003      0.015
6.4000        -33973.19    -34075.68       102.50   585.6      0.975      1.203      0.213     -0.217      0.007      0.011
6.6000        -33971.78    -34079.87       108.10   617.6      0.985      1.198      0.213     -0.219     -0.005      0.028
6.8000        -33969.48    -34079.32       109.84   627.6      0.969      1.218      0.233     -0.241      0.008      0.023
7.0000        -33967.13    -34075.28       108.14   617.9      0.962      1.226      0.217     -0.213      0.009      0.029
7.2000        -33964.68    -34075.20       110.52   631.5      0.978      1.214      0.227     -0.225      0.003      0.014
7.4000        -33960.73    -34073.06       112.33   641.8      0.989      1.220      0.235     -0.231      0.009      0.012
7.6000        -33956.46    -34071.66       115.20   658.2      0.967      1.216      0.225     -0.218     -0.006      0.009
7.8000        -33954.81    -34067.30       112.49   642.7      0.985      1.234      0.221     -0.224      0.007      0.026
8.0000        -33953.36    -34068.40       115.04   657.3      0.976      1.222      0.240     -0.231      0.010      0.013
8.2000        -33951.30    -34067.77       116.47   665.5      0.958      1.225      0.240     -0.228      0.000      0.028
8.4000        -33950.40    -34067.92       117.53   671.5      0.967      1.223      0.232     -0.232     -0.008      0.017
8.6000        -33949.32    -34066.80       117.48   671.3      0.978      1.230      0.248     -0.229      0.009      0.020
8.8000        -33946.00    -34069.19       123.19   703.9      0.958      1.209      0.225     -0.226      0.008      0.016
9.0000        -33946.99    -34069.28       122.28   698.7      0.956      1.221      0.251     -0.230      0.011      0.005
9.2000        -33945.60    -34064.12       118.52   677.2      0.963      1.239      0.244     -0.229      0.001      0.004
9.4000        -33941.45    -34066.30       124.84   713.3      0.952      1.212      0.241     -0.238     -0.001      0.015
9.6000        -33941.16    -34066.22       125.07   714.6      0.951      1.220      0.248     -0.233     -0.006      0.021
9.8000        -33941.02    -34065.79       124.78   712.9      0.952      1.205      0.245     -0.232      0.015      0.021
10.0000       -33941.03    -34065.71       124.68   712.4      0.961      1.239      0.268     -0.235      0.017      0.029
10.2000       -33939.86    -34062.07       122.21   698.3      0.957      1.230      0.263     -0.233      0.004      0.020
10.4000       -33939.63    -34063.49       123.87   707.7      0.949      1.212      0.238     -0.216     -0.001      0.019
10.6000       -33939.53    -34063.54       124.00   708.5      0.972      1.211      0.265     -0.226      0.010      0.013
10.8000       -33939.80    -34062.56       122.76   701.4      0.947      1.214      0.262     -0.242      0.011      0.023
11.0000       -33939.88    -34063.43       123.56   706.0      0.956      1.218      0.266     -0.248     -0.006      0.010
11.2000       -33940.44    -34064.71       124.28   710.1      0.960      1.225      0.274     -0.250      0.008      0.022
11.4000       -33940.07    -34061.94       121.87   696.3      0.926      1.183      0.259     -0.228      0.002      0.010
11.6000       -33939.12    -34060.49       121.37   693.5      0.950      1.227      0.256     -0.226      0.004      0.022
11.8000       -33938.17    -34064.92       126.75   724.2      0.960      1.223      0.272     -0.229      0.013      0.018
12.0000       -33938.64    -34064.36       125.72   718.3      0.962      1.223      0.267     -0.235      0.013      0.014
12.2000       -33937.30    -34061.75       124.46   711.1      0.923      1.215      0.248     -0.235      0.001      0.011
12.4000       -33938.21    -34066.57       128.36   733.4      0.949      1.228      0.250     -0.235     -0.017      0.011
12.6000       -33937.29    -34064.07       126.78   724.4      0.941      1.195      0.263     -0.231      0.003      0.012
12.8000       -33937.30    -34065.50       128.20   732.5      0.962      1.225      0.288     -0.238     -0.017      0.027
13.0000       -33935.54    -34064.08       128.54   734.4      0.925      1.225      0.267     -0.239      0.007      0.019
13.2000       -33935.28    -34061.80       126.51   722.9      0.953      1.241      0.296     -0.241      0.010      0.023
13.4000       -33936.49    -34067.72       131.22   749.8      0.934      1.224      0.249     -0.237      0.010      0.021
13.6000       -33934.89    -34060.17       125.28   715.8      0.964      1.259      0.294     -0.232      0.006     -0.003
13.8000       -33934.43    -34059.57       125.14   715.0      0.941      1.228      0.254     -0.251      0.008      0.006
14.0000       -33934.67    -34061.99       127.32   727.5      0.951      1.199      0.282     -0.244      0.006      0.012
14.2000       -33934.44    -34065.73       131.30   750.2      0.960      1.221      0.288     -0.224      0.003      0.004
14.4000       -33933.57    -34060.61       127.04   725.8      0.949      1.235      0.292     -0.239      0.002      0.014
14.6000       -33932.38    -34058.50       126.12   720.6      0.938      1.234      0.274     -0.248      0.004      0.013
14.8000       -33932.25    -34061.11       128.85   736.2      0.951      1.214      0.279     -0.247      0.010      0.006
15.0000       -33932.86    -34060.23       127.37   727.7      0.941      1.219      0.265     -0.248      0.018      0.016
15.2000       -33933.30    -34060.78       127.48   728.4      0.951      1.254      0.282     -0.244      0.016      0.017
15.4000       -33933.64    -34062.57       128.93   736.7      0.934      1.226      0.268     -0.236      0.002      0.004
15.6000       -33933.94    -34065.14       131.20   749.6      0.951      1.234      0.294     -0.252      0.002      0.011
15.8000       -33933.59    -34064.36       130.77   747.2      0.962      1.225      0.291     -0.251      0.003      0.010
16.0000       -33931.73    -34058.32       126.60   723.3      0.944      1.254      0.295     -0.247      0.002      0.010
16.2000       -33932.81    -34062.70       129.88   742.1      0.917      1.224      0.284     -0.250     -0.003      0.000
16.4000       -33932.93    -34060.58       127.66   729.4      0.951      1.250      0.303     -0.248      0.007      0.004
16.6000       -33931.57    -34063.94       132.37   756.3      0.938      1.235      0.277     -0.249      0.007      0.016
16.8000       -33932.17    -34063.35       131.17   749.5      0.945      1.235      0.303     -0.249      0.011      0.014
17.0000       -33930.33    -34062.06       131.74   752.7      0.940      1.218      0.280     -0.258     -0.000      0.016
17.2000       -33930.21    -34059.84       129.63   740.7      0.950      1.249      0.288     -0.245     -0.002      0.006
17.4000       -33930.06    -34063.38       133.32   761.7      0.941      1.243      0.299     -0.245      0.000      0.011
17.6000       -33930.29    -34059.96       129.67   740.9      0.941      1.229      0.268     -0.239      0.001     -0.001
17.8000       -33928.96    -34062.27       133.30   761.7      0.940      1.254      0.296     -0.251      0.006      0.004
18.0000       -33927.92    -34064.36       136.44   779.6      0.926      1.237      0.294     -0.255     -0.003      0.009
18.2000       -33927.66    -34064.05       136.38   779.3      0.964      1.233      0.300     -0.260     -0.003      0.009
18.4000       -33926.29    -34056.06       129.76   741.4      0.938      1.241      0.283     -0.254     -0.006      0.008
18.6000       -33926.88    -34060.08       133.19   761.0      0.903      1.247      0.287     -0.262     -0.001      0.012
18.8000       -33927.43    -34061.08       133.65   763.6      0.936      1.236      0.303     -0.251     -0.006      0.013
19.0000       -33927.21    -34059.64       132.43   756.6      0.960      1.258      0.310     -0.251     -0.001      0.013
19.2000       -33927.29    -34060.97       133.68   763.8      0.928      1.237      0.288     -0.255      0.009      0.006
19.4000       -33925.28    -34057.68       132.40   756.5      0.918      1.232      0.279     -0.256      0.003      0.006
19.6000       -33923.10    -34057.50       134.40   767.9      0.939      1.218      0.283     -0.255     -0.008      0.010
19.8000       -33922.91    -34058.39       135.48   774.1      0.935      1.241      0.300     -0.255     -0.004      0.006
20.0000       -33922.11    -34052.94       130.84   747.6      0.925      1.233      0.289     -0.244      0.004      0.008
